t,signal
0.0,0.0
0.0016672224074691564,0.041889608763207534
0.003334444814938313,0.08370567990871937
0.005001667222407469,0.12537480491484654
0.006668889629876626,0.1668238332252844
0.008336112037345782,0.20798000066562916
0.010003334444814937,0.24877105718159742
0.011670556852284094,0.28912539367470314
0.013337779259753251,0.3289721677127293
0.015005001667222408,0.3682414278943112
0.016672224074691565,0.40686423664930454
0.01833944648216072,0.4447727912593641
0.020006668889629875,0.4819005428862788
0.021673891297099034,0.5181823133991077
0.02334111370456819,0.5535544097950256
0.025008336112037347,0.5879547360130125
0.026675558519506502,0.621322901944096
0.028342780926975657,0.6536003294467777
0.030010003334444816,0.6847303551815331
0.03167722574191397,0.7146583300838585
0.03334444814938313,0.7433317153012375
0.03501167055685228,0.7707001744256108
0.03667889296432144,0.7967156618594319
0.0383461153717906,0.8213325071601841
0.04001333777925975,0.8445074952152879
0.04168056018672891,0.8661999421066547
0.04334778259419807,0.8863717665317018
0.045015005001667226,0.9049875566554516
0.04668222740913638,0.9220146322763543
0.048349449816605536,0.9374231021967011
0.050016672224074694,0.951185916696914
0.051683894631543846,0.9632789150215928
0.053351117039013005,0.9736808677939578
0.05501833944648216,0.9823735142842278
0.056685561853951315,0.9893415944665099
0.05835278426142047,0.9945728758079245
0.06002000666888963,0.9980581747429358
0.061687229076358784,0.999791372795191
0.06335445148382794,0.9997694273185659
0.0650216738912971,0.997992376838559
0.06668889629876626,0.9944633409846606
0.06835611870623541,0.989188515013812
0.07002334111370456,0.9821771589345715
0.07169056352117373,0.9734415812510788
0.07335778592864288,0.9629971173553566
0.07502500833611203,0.9508621026058786
0.0766922307435812,0.9370578401396688
0.07835945315105035,0.921608563474437
0.0800266755585195,0.9045413939664009
0.08169389796598867,0.8858862931984799
0.08336112037345782,0.8656760103824441
0.08502834278092698,0.8439460248673523
0.08669556518839613,0.8207344838552082
0.08836278759586529,0.7960821354331741
0.09003001000333445,0.7700322570399053
0.0916972324108036,0.7426305794915846
0.09336445481827275,0.7139252067010265
0.09503167722574192,0.6839665312307873
0.09669889963321107,0.652807145828531
0.09836612204068022,0.6205017510999447
0.10003334444814939,0.5871070594812904
0.10170056685561854,0.5526816956801713
0.10336778926308769,0.5172860937592818
0.10503501167055686,0.4809823910438199
0.10670223407802601,0.4438343190388077
0.10836945648549516,0.40590709154780835
0.11003667889296433,0.3672672901894577
0.11170390130043348,0.32798274751278284
0.11337112370790263,0.2881224279164972
0.1150383461153718,0.24775630658132522
0.11670556852284095,0.20695524662788997
0.1183727909303101,0.1657908747158095
0.12004001333777926,0.12433545530239706
0.12170723574524842,0.08266176378170104
0.12337445815271757,0.0408429587265862
0.12504168056018672,-0.001047546541852579
0.12670890296765588,-0.04293621283209679
0.12837612537512505,-0.08474950418097034
0.1300433477825942,-0.1264140169467449
0.13171057019006335,-0.16785660866994925
0.13337779259753252,-0.209004526475671
0.13504501500500166,-0.24978553479194018
0.13671223741247082,-0.2901280421599851
0.13837945981994,-0.3299612269137328
0.14004668222740912,-0.36921516150793887
0.1417139046348783,-0.4078209352766794
0.14338112704234746,-0.4457107754066931
0.1450483494498166,-0.4828181659132209
0.14671557185728576,-0.5190779644094691
0.14838279426475492,-0.5544265164647016
0.15005001667222406,-0.5888017673502184
0.15171723907969323,-0.6221433709770393
0.1533844614871624,-0.6543927958340502
0.15505168389463153,-0.6854934277406444
0.1567189063021007,-0.7153906692334714
0.15838612870956986,-0.7440320354128158
0.160053351117039,-0.7713672460803517
0.16172057352450817,-0.7973483140065251
0.16338779593197733,-0.8219296291725999
0.1650550183394465,-0.8450680388394969
0.16672224074691563,-0.8667229233028435
0.1683894631543848,-0.8868562672012688
0.17005668556185397,-0.9054327262527344
0.1717239079693231,-0.922419689301773
0.17339113037679227,-0.9377873355686878
0.17505835278426143,-0.9515086870002236
0.17672557519173057,-0.9635596556298021
0.17839279759919974,-0.9739190858641849
0.1800600200066689,-0.9825687916223215
0.18172724241413804,-0.989493588261194
0.1833944648216072,-0.9946813192326068
0.18506168722907637,-0.9981228774241239
0.1867289096365455,-0.9998122211466957
0.18839613204401467,-0.9997463847409022
0.19006335445148384,-0.9979254837831973
0.19173057685895298,-0.9943527148830137
0.19339779926642214,-0.9890343500710824
0.1950650216738913,-0.9819797257888235
0.19673224408136045,-0.9732012264981302
0.1983994664888296,-0.9627142629403256
0.20006668889629878,-0.9505372450824556
0.20173391130376792,-0.9366915497984127
0.20340113371123708,-0.9212014833416221
0.20506835611870625,-0.9040942386751802
0.20673557852617538,-0.8853998477343388
0.20840280093364455,-0.8651511287051502
0.21007002334111372,-0.8433836284118209
0.21173724574858285,-0.8201355599139153
0.21340446815605202,-0.7954477354229537
0.21507169056352118,-0.7693634946561775
0.21673891297099032,-0.7419286287532518
0.2184061353784595,-0.7131912998894714
0.22007335778592865,-0.683201956726593
0.2217405801933978,-0.6520132458497139
0.22340780260086696,-0.6196799193456785
0.22507502500833612,-0.5862587386852537
0.22674224741580526,-0.5518083750778159
0.22840946982327442,-0.516389306473461
0.2300766922307436,-0.4800637113933823
0.23174391463821273,-0.44289535977486016
0.2334111370456819,-0.404949501022518
0.23507835945315106,-0.3662927494623526
0.2367455818606202,-0.3269929673996378
0.23841280426808936,-0.2871191459859752
0.24008002667555853,-0.24674128410466464
0.24174724908302767,-0.20593026548697096
0.24341447149049683,-0.1647577342750452
0.245081693897966,-0.12329596924993073
0.24674891630543513,-0.0816177569454602
0.2484161387129043,-0.039796263870778524
0.25008336112037344,0.002095091934175709
0.25175058352784263,0.043982769784758804
0.25341780593531177,0.08579323545300929
0.2550850283427809,0.12745309025770835
0.2567522507502501,0.16888919991648316
0.25841947315771924,0.2100288229337466
0.2600866955651884,0.25079973829911273
0.26175391797265757,0.2911303722720829
0.2634211403801267,0.33094992403044443
0.26508836278759584,0.37018848996181053
0.26675558519506504,0.4087771863800966
0.2684228076025342,0.44664827045149325
0.2700900300100033,0.4837352591176894
0.2717572524174725,0.51997304580752
0.27342447482494164,0.5552980147321896
0.2750916972324108,0.5896481525634151
0.27675891963988,0.6229631572984303
0.2784261420473491,0.6551845441207318
0.28009336445481825,0.6862557480707604
0.28176058686228744,0.7161222233462304
0.2834278092697566,0.7447315390578203
0.2850950316772257,0.7720334712721152
0.2867622540846949,0.7979800911802101
0.28842947649216405,0.8225258492372018
0.2900966988996332,0.8456276551248626
0.2917639213071024,0.8672449533971153
0.2934311437145715,0.8873397946755113
0.29509836612204066,0.9058769022697402
0.29676558852950985,0.9228237341062022
0.298432810936979,0.938150539855936
0.3001000333444481,0.9518304131616133
0.3017672557519173,0.9638393388719132
0.30343447815938646,0.9741562352003504
0.3051017005668556,0.9827629907345639
0.3067689229743248,0.9896444962310734
0.3084361453817939,0.9947886711397065
0.31010336778926306,0.9981864848111217
0.31177059019673226,0.9998319723502018
0.3134378126042014,0.9997222450874859
0.31510503501167053,0.9978574956502562
0.3167722574191397,0.9942409976243795
0.31843947982660886,0.9888790998074953
0.320106702234078,0.9817812150636387
0.3217739246415472,0.9729598037988658
0.32344114704901633,0.9624303520868909
0.3251083694564855,0.9502113444831295
0.32677559186395466,0.9363242315748828
0.3284428142714238,0.9207933923246213
0.330110036678893,0.9036460912724772
0.33177725908636213,0.8849124306730808
0.33344448149383127,0.8646252976507541
0.33511170390130046,0.842820306465842
0.3367789263087696,0.8195357359935372
0.33844614871623874,0.7948124625249325
0.34011337112370793,0.7686938880082962
0.34178059353117707,0.7412258638565268
0.3434478159386462,0.7124566104545494
0.3451150383461154,0.6824366325079578
0.34678226075358454,0.6512186303815155
0.3484494831610537,0.6188574075831382
0.35011670556852287,0.5854097745558109
0.351783927975992,0.5509344489462992
0.35345115038346114,0.5154919525257408
0.35511837279093034,0.4791445049430823
0.3567855951983995,0.44195591449789173
0.3584528176058686,0.4039914661242488
0.3601200400133378,0.3653178067824131
0.36178726242080694,0.326002828459432
0.3634544848282761,0.2861155489840939
0.3651217072357453,0.24572599086545324
0.3667889296432144,0.20490505836763812
0.36845615205068355,0.16372441303671298
0.37012337445815274,0.12225634789813215
0.3717905968656219,0.08057366054564255
0.373457819273091,0.038749525344378734
0.3751250416805602,-0.003142635027441646
0.37679226408802935,-0.04502927847274902
0.3784594864954985,-0.08683687257949224
0.3801267089029677,-0.1284920237075086
0.3817939313104368,-0.16992160583176769
0.38346115371790596,-0.21105288891584098
0.38512837612537515,-0.2518136665901759
0.3867955985328443,-0.2921323829110851
0.3884628209403134,-0.3319382579779142
0.3901300433477826,-0.37116141218784193
0.39179726575525176,-0.40973298891020815
0.3934644881627209,-0.44758527536500187
0.3951317105701901,-0.48465182149330843
0.3967989329776592,-0.520867556611038
0.39846615538512836,-0.5561689036411472
0.40013337779259756,-0.5904938907238209
0.4018006002000667,-0.623782260008672
0.40346782260753583,-0.6559755734379951
0.405135045015005,-0.6870173153353476
0.40680226742247416,-0.7168529916193614
0.4084694898299433,-0.7454302254686485
0.4101367122374125,-0.7726988492698157
0.41180393464488163,-0.7986109926872029
0.41347115705235077,-0.8231211666997243
0.41513837945981996,-0.8461863434572909
0.4168056018672891,-0.8677660318166173
0.41847282427475824,-0.8878223484238289
0.42014004668222743,-0.9063200842190516
0.42180726908969657,-0.9232267662462617
0.4234744914971657,-0.938512714659882
0.4251417139046349,-0.9521510948280372
0.42680893631210404,-0.9641179644410136
0.4284761587195732,-0.974392315542218
0.43014338112704237,-0.9829561114078501
0.4318106035345115,-0.9897943182105484
0.43347782594198064,-0.9948949314114207
0.43514504834944984,-0.9982489968341294
0.436812270756919,-0.9998506263840354
0.4384794931643881,-0.9996970083848067
0.4401467155718573,-0.9977884125143422
0.44181393797932644,-0.9941281893313515
0.4434811603867956,-0.9887227643934143
0.4451483827942648,-0.9815816269768525
0.4468156052017339,-0.9727173134182124
0.44848282760920305,-0.9621453851066036
0.45015005001667224,-0.9498844011655276
0.4518172724241414,-0.9359558858721576
0.4534844948316105,-0.9203842908712544
0.4551517172390797,-0.9031969522500694
0.45681893964654885,-0.8844240425495765
0.458486162054018,-0.864098517796278
0.4601533844614872,-0.84225605964758
0.4618206068689563,-0.818935012752294
0.46348782927642546,-0.7941763174362306
0.46515505168389465,-0.7680234378310579
0.4668222740913638,-0.7405222855725924
0.4684894964988329,-0.7117211392024747
0.4701567189063021,-0.6816705594147157
0.47182394131377126,-0.6504233002959089
0.4734911637212404,-0.6180342167149102
0.4751583861287096,-0.5845601680245769
0.4768256085361787,-0.5500599182446304
0.47849283094364786,-0.5145940329008319
0.48016005335111706,-0.47822477270161606
0.4818272757585862,-0.44101598423880767
0.48349449816605533,-0.40303298790430553
0.4851617205735245,-0.3643424632194941
0.48682894298099366,-0.3250123317787002
0.4884961653884628,-0.28511163801215383
0.490163387795932,-0.24471042797783027
0.49183061020340113,-0.20387962639490959
0.49349783261087027,-0.16269091213472991
0.49516505501833946,-0.12121659238783493
0.4968322774258086,-0.07952947572799238
0.49849949983327774,-0.03770274429603093
0.5001667222407469,0.004190174672123394
0.5018339446482161,0.04607573774767775
0.5035011670556853,0.08788041441518243
0.5051683894631543,0.12953081615606074
0.5068356118706235,0.1709538252828902
0.5085028342780927,0.21207672329819294
0.5101700566855618,0.2528273185524866
0.511837279093031,0.29313407297743055
0.5135045015005002,0.33292622767158864
0.5151717239079693,0.3721339271183881
0.5168389463154385,0.4106883418181615
0.5185061687229077,0.4485217891189929
0.5201733911303767,0.48556785203428354
0.5218406135378459,0.521761495838429
0.5235078359453151,0.5570391822359027
0.5251750583527842,0.5913389809033555
0.5268422807602534,0.6246006782089185
0.5285095031677226,0.6567658829178018
0.5301767255751917,0.6877781286986928
0.5318439479826609,0.7175829732509521
0.5335111703901301,0.7461280938785939
0.5351783927975992,0.7733633793432976
0.5368456152050683,0.799241017835182
0.5385128376125375,0.8237155809068951
0.5401800600200066,0.8467441032236989
0.5418472824274758,0.8682861579895435
0.543514504834945,0.8883039279166902
0.5451817272424141,0.9067622716143389
0.5468489496498833,0.9236287852796821
0.5485161720573525,0.9388738595830913
0.5501833944648216,0.9524707316475918
0.5518506168722908,0.9643955320313531
0.55351783927976,0.9746273266307237
0.555185061687229,0.9831481534302581
0.5568522840946982,0.9899430540352113
0.5585195065021674,0.9950000999311444
0.5601867289096365,0.998310413424549
0.5618539513171057,0.9998681832277264
0.5635211737245749,0.999670674660558
0.565188396132044,0.9977182344512647
0.5668556185395132,0.9940142901277205
0.5685228409469824,0.9885653440003951
0.5701900633544514,0.9813809617474846
0.5718572857619206,0.9724737556222673
0.5735245081693898,0.9618593623121728
0.5751917305768589,0.9495564154884243
0.5768589529843281,0.9355865130944421
0.5785261753917973,0.91997417943045
0.5801933977992664,0.9027468221008212
0.5818606202067356,0.8839346838997598
0.5835278426142048,0.8635707897197873
0.5851950650216738,0.8416908885762125
0.586862287429143,0.8183333908493907
0.5885295098366122,0.7935393008549225
0.5901967322440813,0.767352144860183
0.5918639546515505,0.7398178946735225
0.5935311770590197,0.7109848869403181
0.5951983994664888,0.6809037382875199
0.596865621873958,0.6496272564656553
0.5985328442814272,0.6172103476443249
0.6002000666888962,0.5837099200238716
0.6018672890963654,0.549184783932478
0.6035345115038346,0.5136955485840727
0.6052017339113037,0.47730451567825466
0.6068689563187729,0.4400755700290435
0.6085361787262421,0.40207406741447566
0.6102034011337112,0.36336671984389773
0.6118706235411804,0.32402147844436546
0.6135378459486496,0.28410741417179897
0.6152050683561187,0.24369459655622774
0.6168722907635878,0.20285397069404562
0.618539513171057,0.1616572327032159
0.6202067355785261,0.12017670386001811
0.6218739579859953,0.07848520363834927
0.6235411803934645,0.03665592187442189
0.6252084028009336,-0.00523770971869996
0.6268756252084028,-0.04712214646120867
0.628542847615872,-0.08892385981494144
0.6302100700233411,-0.13056946646344786
0.6318772924308103,-0.17198585713713696
0.6335445148382794,-0.21310032495729012
0.6352117372457485,-0.253840693073715
0.6368789596532177,-0.2941354413719096
0.6385461820606869,-0.3339138320273176
0.640213404468156,-0.3731060336862607
0.6418806268756252,-0.4116432440555978
0.6435478492830944,-0.4494578106857767
0.6452150716905636,-0.4864833497354071
0.6468822940980327,-0.5226548625087264
0.6485495165055019,-0.5579088495614493
0.650216738912971,-0.5921834221746625
0.6518839613204401,-0.6254184110010759
0.6535511837279093,-0.6575554716929003
0.6552184061353785,-0.6885381873259225
0.6568856285428476,-0.718312167439955
0.6585528509503168,-0.746825143521845
0.660220073357786,-0.7740270607633387
0.6618872957652551,-0.7998701659327864
0.6635545181727243,-0.8243090912064301
0.6652217405801935,-0.8473009338120314
0.6668889629876625,-0.8688053313451286
0.6685561853951317,-0.8887845326256312
0.6702234078026009,-0.9072034639703697
0.67189063021007,-0.9240297907653058
0.6735578526175392,-0.9392339742292611
0.6752250750250084,-0.9527893232695251
0.6768922974324775,-0.964672041338342
0.6785595198399467,-0.9748612682079768
0.6802267422474159,-0.9833391165910502
0.6818939646548849,-0.9900907035418465
0.6835611870623541,-0.9951041765834702
0.6852284094698233,-0.998370734514985
0.6868956318772924,-0.9998846428620085
0.6885628542847616,-0.9996432439436376
0.6902300766922308,-0.997646961538033
0.6918972990996999,-0.9938993001384742
0.6935645215071691,-0.9884068388011843
0.6952317439146383,-0.9811792195957348
0.6968989663221073,-0.9722291306783
0.6985661887295765,-0.9615722840174671
0.7002334111370457,-0.949227387811733
0.7019006335445148,-0.9352161136470706
0.703567855951984,-0.9195630584522461
0.7052350783594532,-0.9022957013186818
0.7069023007669223,-0.8834443552606313
0.7085695231743915,-0.8630421140003849
0.7102367455818607,-0.8411247938719317
0.7119039679893298,-0.817730870945019
0.713571190396799,-0.7929014134800433
0.7152384128042681,-0.7666800098323165
0.7169056352117372,-0.7391126919322824
0.7185728576192064,-0.7102478544760117
0.7202400800266756,-0.680136169967841
0.7219073024341447,-0.6488304997642955
0.7235745248416139,-0.6163858012754612
0.7252417472490831,-0.5828590314867108
0.7269089696565522,-0.5483090469701742
0.7285761920640214,-0.5127965005614215
0.7302434144714905,-0.4763837348828428
0.7319106368789596,-0.43913467290056657
0.7335778592864288,-0.40111470570703617
0.735245081693898,-0.3623905777263517
0.7369123041013671,-0.3230302695437497
0.7385795265088363,-0.2831028785650201
0.7402467489163055,-0.2426784977153655
0.7419139713237746,-0.2018280923905554
0.7435811937312438,-0.16062337587647973
0.745248416138713,-0.11913668345580582
0.746915638546182,-0.07744084542264763
0.7485828609536512,-0.035609059228289996
0.7502500833611204,0.006285239017656285
0.7519173057685895,0.04816850346506271
0.7535845281760587,0.089967207633742
0.7552517505835279,0.1316079734899028
0.756918972990997,0.17301770026200544
0.7585861953984662,0.21412369276988089
0.7602534178059354,0.25485378904183376
0.7619206402134044,0.2951364869956718
0.7635878626208736,0.33490106996134456
0.7652550850283428,0.374077730824718
0.7669223074358119,0.4125976945746464
0.7685895298432811,0.45039333903820955
0.7702567522507503,0.4873983135920525
0.7719239746582194,0.5235476556415863
0.7735911970656886,0.5587779046634571
0.7752584194731578,0.5930272136110878
0.7769256418806268,0.6262354574878031
0.778592864288096,0.6583443388968345
0.7802600866955652,0.6892974903829729
0.7819273091030343,0.7190405733861869
0.7835945315105035,0.7475213736334966
0.7852617539179727,0.7746898928016401
0.7869289763254418,0.8004984362896191
0.788596198732911,0.8249016969470366
0.7902634211403802,0.8478568346112427
0.7919306435478493,0.8693235513136591
0.7935978659553184,0.8892641620232565
0.7952650883627876,0.9076436608029967
0.7969323107702567,0.9244297822630898
0.7985995331777259,0.9395930582032164
0.8002667555851951,0.9531068693442273
0.8019339779926642,0.9649474920585505
0.8036012004001334,0.9750941400172612
0.8052684228076026,0.983529000680672
0.8069356452150717,0.9902372665684295
0.8086028676225409,0.9952071612541894
0.81027009003001,0.9984299600392438
0.8119373124374791,0.9999000052688201
0.8136045348449483,0.9996147162641464
0.8152717572524175,0.9975745938528596
0.8169389796598866,0.993783219489797
0.8186062020673558,0.988247248969717
0.820273424474825,0.9809764007429874
0.8219406468822941,0.9719834388547499
0.8236078692897633,0.9612841505375141
0.8252750916972325,0.948897318496517
0.8269423141047015,0.9348446879365001
0.8286095365121707,0.9191509283877896
0.8302767589196399,0.9018435903986934
0.831943981327109,0.8829530571702524
0.8336112037345782,0.8625124912182179
0.8352784261420474,0.8405577761559447
0.8369456485495165,0.8171274537003593
0.8386128709569857,0.792262656011579
0.8402800933644549,0.76600703348503
0.8419473157719239,0.7384066781227325
0.8436145381793931,0.7095100426183384
0.8452817605868623,0.6793678552979756
0.8469489829943314,0.6480330310661522
0.8486162054018006,0.6155605785131354
0.8502834278092698,0.5820075033468322
0.8519506502167389,0.5474327083187109
0.8536178726242081,0.5118968898194463
0.8552850950316773,0.47546243132581073
0.8569523174391463,0.4381932938858725
